Bx(GPa)	By(GPa)
-0.000000	-7142.856952
-124.757753	-7147.366913
-250.065314	-7160.933674
-376.479923	-7183.664871
-504.573977	-7215.744049
-634.943239	-7257.434439
-768.215569	-7309.082909
-905.060725	-7371.128089
-1046.201085	-7444.107529
-1192.425180	-7528.676292
-1344.601990	-7625.616831
-1503.698992	-7735.860696
-1670.802974	-7860.509988
-1847.147709	-8000.875747
-2034.144050	-8158.506179
-2233.421112	-8335.241075
-2446.876461	-8533.272320
-2676.740538	-8755.223808
-2925.658177	-9004.250016
-3196.798810	-9284.177888
-3493.994928	-9599.672178
-3821.936782	-9956.485727
-4186.429436	-10361.776471
-4594.755036	-10824.564534
-5056.178055	-11356.361860
-5582.672935	-11972.080759
-6190.016127	-12691.413860
-6899.410628	-13540.855796
-7740.067121	-14556.949096
-8753.370844	-15791.499042
-10000.000243	-17320.508519
-11572.620475	-19260.074837
-13620.219403	-21796.907431
-16398.573779	-25251.589251
-20386.782399	-30224.647898
-26599.258989	-37987.678756
-37622.927664	-51783.517502
-62593.138747	-83063.900757
-173624.435803	-222229.144060
244312.258303	301700.513514
73517.428843	87614.660069
43886.972091	50486.186257
31585.288436	35079.016674
24850.694248	26649.106975
20601.940101	21333.933531
17677.669962	17677.669990
15542.572551	15009.287869
13915.660190	12976.563083
12635.269207	11376.847515
11601.784272	10085.277221
10750.494718	9020.736170
10037.518487	8128.222219
9432.064836	7369.136699
8911.879610	6715.582987
8460.479620	6146.898264
8065.406742	5647.458611
7717.061902	5205.223989
7407.927116	4810.764130
7132.040418	4456.593484
6884.608223	4136.689969
6661.734599	3846.154273
6460.218178	3580.957419
6277.412245	3337.759306
6111.099563	3113.760761
5959.419425	2906.603071
5820.793175	2714.280442
5693.876582	2535.077193
5577.515556	2367.514899
5470.719134	2210.314012
5372.628476	2062.358853
5282.495962	1922.671300
5199.673124	1790.391044
5123.590154	1664.755364
5053.750065	1545.086458
4989.713936	1430.777454
4931.097475	1321.283593
4877.559915	1216.112279
4828.803010	1114.817023
4784.564133	1016.990508
4744.610732	922.258908
4708.739516	830.277829
4676.771985	740.727920
4648.554376	653.311719
4623.951513	567.749863
4602.849346	483.778968
4585.151024	401.148742
4570.776411	319.619830
4559.662388	238.961787
4551.757272	158.950874
4547.028167	79.368679
4545.454510	0.000007
4547.028167	-79.368665
4551.757272	-158.950859
4559.662388	-238.961772
4570.776413	-319.619815
4585.151025	-401.148727
4602.849348	-483.778953
4623.951515	-567.749848
4648.554378	-653.311704
4676.771987	-740.727905
4708.739519	-830.277814
4744.610735	-922.258893
4784.564136	-1016.990493
4828.803014	-1114.817008
4877.559918	-1216.112264
4931.097479	-1321.283577
4989.713940	-1430.777438
5053.750069	-1545.086442
5123.590159	-1664.755347
5199.673130	-1790.391027
5282.495968	-1922.671283
5372.628483	-2062.358836
5470.718671	-2210.313805
5577.515564	-2367.514881
5693.876591	-2535.077175
5820.793184	-2714.280424
5959.419434	-2906.603052
6111.099573	-3113.760741
6277.412256	-3337.759286
6460.218189	-3580.957399
6661.734611	-3846.154252
6884.608236	-4136.689946
7132.040432	-4456.593461
7407.927131	-4810.764106
7717.061919	-5205.223964
8065.406760	-5647.458585
8460.479640	-6146.898237
8911.879631	-6715.582958
9432.064860	-7369.136669
10037.518513	-8128.222187
10750.494747	-9020.736135
11601.784305	-10085.277184
12635.269244	-11376.847474
13915.660232	-12976.563038
15542.567712	-15009.283099
17677.670019	-17677.669934
20601.940169	-21333.933465
24850.694333	-26649.106895
31585.288548	-35079.016573
43886.972254	-50486.186116
73517.429124	-87614.659833
244312.259271	-301700.512730
-173624.436516	222229.143503
-62593.139014	83063.900556
-37622.927830	51783.517381
-26599.259111	37987.678671
-20386.782496	30224.647833
-16398.573860	25251.589199
-13620.219473	21796.907387
-11572.620537	19260.074800
-10000.000299	17320.508486
-8753.372045	15791.501088
-7740.067168	14556.949071
-6899.410671	13540.855773
-6190.016168	12691.413840
-5582.674047	11972.083042
-5056.178092	11356.361844
-4594.755071	10824.564519
-4186.429469	10361.776457
-3821.936814	9956.485715
-3493.994958	9599.672167
-3196.798840	9284.177877
-2925.658206	9004.250006
-2676.740745	8755.224383
-2446.876488	8533.272313
-2233.421139	8335.241068
-2034.144076	8158.506173
-1847.147735	8000.875741
-1670.803000	7860.509983
-1503.699017	7735.860691
-1344.602015	7625.616827
-1192.425204	7528.676288
-1046.201109	7444.107526
-905.060749	7371.128086
-768.215592	7309.082907
-634.943262	7257.434437
-504.574000	7215.744047
-376.479946	7183.664870
-250.065337	7160.933673
-124.757776	7147.366912
-0.000023	7142.856952
124.757730	7147.366913
250.065291	7160.933675
376.479900	7183.664872
504.573953	7215.744051
634.943216	7257.434441
768.215545	7309.082912
905.060701	7371.128092
1046.201061	7444.107532
1192.425155	7528.676295
1344.601966	7625.616835
1503.698967	7735.860701
1670.802949	7860.509994
1847.147683	8000.875753
2034.144024	8158.506186
2233.421086	8335.241082
2446.876433	8533.272328
2676.740510	8755.223817
2925.658148	9004.250025
3196.798780	9284.177898
3493.994897	9599.672189
3821.936750	9956.485739
4186.429402	10361.776484
4594.755001	10824.564549
5056.178019	11356.361876
5582.672897	11972.080777
6190.016086	12691.413880
6899.410584	13540.855818
7740.065217	14556.945628
8753.370794	15791.499070
10000.000188	17320.508551
11572.620413	19260.074875
13620.219333	21796.907475
16398.573698	25251.589304
20386.782302	30224.647964
26599.258867	37987.678841
37622.927498	51783.517623
62593.138480	83063.900958
173624.435089	222229.144617
-244312.257334	-301700.514298
-73517.428562	-87614.660305
-43886.971929	-50486.186398
-31585.288323	-35079.016775
-24850.694162	-26649.107054
-20601.953369	-21333.947408
-17677.669905	-17677.670047
-15542.572503	-15009.287918
-13915.660149	-12976.563128
-12635.269171	-11376.847555
-11601.784240	-10085.277258
-10750.494690	-9020.736204
-10037.518461	-8128.222251
-9432.064812	-7369.136729
-8911.879588	-6715.583016
-8460.479601	-6146.898291
-8065.406723	-5647.458637
-7717.061885	-5205.224014
-7407.927101	-4810.764153
-7132.040403	-4456.593507
-6884.608210	-4136.689991
-6661.734586	-3846.154295
-6460.218166	-3580.957440
-6277.412234	-3337.759326
-6111.099553	-3113.760780
-5959.419416	-2906.603090
-5820.793167	-2714.280461
-5693.876574	-2535.077211
-5577.515549	-2367.514916
-5470.719127	-2210.314029
-5372.628470	-2062.358870
-5282.495956	-1922.671317
-5199.673118	-1790.391061
-5123.590149	-1664.755380
-5053.750060	-1545.086475
-4989.713931	-1430.777470
-4931.097471	-1321.283609
-4877.559911	-1216.112295
-4828.803007	-1114.817039
-4784.564129	-1016.990523
-4744.610729	-922.258923
-4708.739514	-830.277844
-4676.771983	-740.727935
-4648.554374	-653.311734
-4623.951511	-567.749878
-4602.849345	-483.778982
-4585.151023	-401.148757
-4570.776410	-319.619844
-4559.662387	-238.961802
-4551.757271	-158.950888
-4547.028167	-79.368694
-4545.454510	-0.000022
-4547.028168	79.368650
-4551.757273	158.950844
-4559.662389	238.961758
-4570.776414	319.619800
-4585.151027	401.148713
-4602.849349	483.778938
-4623.951516	567.749833
-4648.554380	653.311689
-4676.771990	740.727890
-4708.739522	830.277799
-4744.610738	922.258877
-4784.564139	1016.990477
-4828.803017	1114.816992
-4877.559922	1216.112248
-4931.097484	1321.283562
-4989.713945	1430.777422
-5053.750074	1545.086426
-5123.590165	1664.755331
-5199.673136	1790.391011
-5282.495974	1922.671266
-5372.628490	2062.358819
-5470.718678	2210.313787
-5577.515572	2367.514863
-5693.875566	2535.076697
-5820.793193	2714.280405
-5959.419444	2906.603033
-6111.099583	3113.760721
-6277.410968	3337.758575
-6460.218201	3580.957378
-6661.734623	3846.154231
-6884.608250	4136.689924
-7132.040446	4456.593438
-7407.927147	4810.764082
-7717.061936	5205.223940
-8065.406778	5647.458559
-8460.479660	6146.898210
-8911.878205	6715.581839
-9432.064062	7369.135996
-10037.518539	8128.222154
-10750.492581	9020.734258
-11601.784337	10085.277146
-12635.269280	11376.847433
-13915.660274	12976.562994
-15542.567760	15009.283050
-17677.670076	17677.669877
-20601.940238	21333.933399
-24850.694419	26649.106815
-31585.288661	35079.016471
-43886.972416	50486.185975
-73517.429406	87614.659597
-244312.260240	301700.511946
173624.437229	-222229.142946
62593.139280	-83063.900355
37622.927996	-51783.517260
26599.259233	-37987.678585
20386.782593	-30224.647767
16398.573941	-25251.589146
13620.219543	-21796.907343
11572.620598	-19260.074763
10000.000355	-17320.508454
8753.372096	-15791.501060
7740.067215	-14556.949046
6899.410715	-13540.855751
6190.016209	-12691.413820
5582.674085	-11972.083024
5056.178128	-11356.361828
4594.755105	-10824.564505
4186.429502	-10361.776444
3821.936845	-9956.485702
3493.994989	-9599.672155
3196.798869	-9284.177867
2925.658235	-9004.249997
2676.740773	-8755.224374
2446.876515	-8533.272305
2233.421166	-8335.241061
2034.144102	-8158.506166
1847.147761	-8000.875735
1670.803025	-7860.509977
1503.699042	-7735.860686
1344.602039	-7625.616823
1192.425228	-7528.676284
1046.201132	-7444.107522
905.060772	-7371.128084
768.215616	-7309.082904
634.943286	-7257.434435
504.574023	-7215.744046
376.479969	-7183.664868
250.065360	-7160.933672
124.757799	-7147.366912
0.000046	-7142.856952
